biogas_kg_h
21,7975
21,7976
21,7976
21,7976
21,7977
21,7977
21,7977
21,7989
21,8017
21,8026
21,8031
21,8052
21,8058
21,8059
21,8099
21,8106
21,8112
21,8125
21,8131
21,8141
21,8147
21,8154
21,8164
21,817
21,8182
21,819
21,8224
21,8265
21,8307
21,8348
21,8356
21,8362
21,8404
21,8547
21,8554
21,8739
21,8745
21,8853
21,8931
21,8937
21,9122
21,9129
21,9314
21,9321
21,9506
21,9512
21,9698
21,9704
21,9745
21,9839
21,9886
21,9954
21,998
22,0637
22,0902
22,1248
22,153
22,1596
22,1672
22,19
22,2422
22,3067
22,3212
22,3314
22,3505
22,3756
22,378
22,3847
22,4206
22,4467
22,4725
22,4828
22,5
22,5098
22,5338
22,545
22,5793
22,5991
22,6001
22,6445
22,6658
22,69
22,7172
22,7686
22,7739
22,8061
22,8075
22,9005
22,9443
22,9537
22,9565
22,9677
22,9685
23,0838
23,0905
23,1293
23,1363
23,1632
23,191
23,2278
23,2415
23,25
23,2671
23,291
23,3052
23,3083
23,3578
23,4124
23,4163
23,4334
23,4504
23,4544
23,4991
23,5129
23,5293
23,5524
23,6374
23,7343
23,7464
23,7703
23,8002
23,8055
23,8061
23,8092
23,8172
23,882
23,9187
23,9645
24,0416
24,0562
24,0654
24,0815
24,0909
24,105
24,1618
24,2102
24,2324
24,2631
24,2929
24,31
24,3129
24,3781
24,3928
24,4353
24,464
24,518
24,5729
24,5841
24,6076
24,6213
24,6501
24,6989
24,7
24,7272
24,7798
24,8108
24,8255
24,853
24,8554
24,8742
24,9497
24,952
25,0163
25,0486
25,097
25,1221
25,1242
25,1267
25,1279
25,2187
25,2259
25,2304
25,2639
25,278
25,2964
25,3116
25,3297
25,3988
25,4015
25,4335
25,4759
25,5364
25,5373
25,5857
25,5866
25,6064
25,628
25,6411
25,7449
25,7574
25,764
25,7873
25,7917
25,8124
25,8487
25,8488
25,8577
25,8648
25,8798
25,8939
25,9036
25,9117
25,9226
25,9295
25,9348
25,9348
25,9428
25,9473
25,9525
25,9549
25,9651
25,983
26,0008
26,0042
26,0186
26,0364
26,0431
26,0531
26,0971
26,1183
26,1299
26,1826
26,2043
26,2198
26,2557
26,2632
26,299
26,3133
26,3221
26,3366
26,3459
26,3559
26,3719
26,3814
26,4556
26,4616
26,4793
26,5072
26,5761
26,5915
26,6012
26,602
26,633
26,6458
26,6552
26,6809
26,7407
26,7587
26,7606
26,8107
26,8155
26,8213
26,8402
26,8802
26,8845
26,9032
26,922
26,9246
27,0069
27,0102
27,055
27,106
27,1194
27,1389
27,1732
27,1829
27,2011
27,2706
27,2945
27,3314
27,3368
27,3783
27,4971
27,5136
27,5339
27,5539
27,5621
27,5867
27,6188
27,6814
27,72
27,7414
27,7734
27,7833
27,7849
27,8025
27,8593
27,8662
27,8914
27,923
27,9248
28,0144
28,025
28,0278
28,0998
28,1515
28,1693
28,2701
28,2839
28,2958
28,3012
28,3133
28,3402
28,4115
28,4159
28,4242
28,4405
28,5616
28,5774
28,5807
28,6187
28,6263
28,6448
28,6668
28,7151
28,7959
28,8212
28,8217
28,8292
28,8536
28,8853
28,9274
28,9535
28,9716
29,0029
29,0031
29,0378
29,0617
29,068
29,0862
29,1294
29,1298
29,1585
29,1619
29,2158
29,2275
29,2376
29,2673
29,3021
29,3133
29,3817
29,389
29,3899
29,4061
29,4088
29,4493
29,4646
29,5173
29,5403
29,5442
29,6024
29,616
29,6333
29,6369
29,6498
29,6823
29,6917
29,7709
29,7797
29,7918
29,8182
29,8463
29,9338
29,9341
29,9585
29,9891
29,9988
30,0391
30,0879
30,1217
30,1314
30,1474
30,1489
30,1507
30,2018
30,2034
30,212
30,2247
30,2347
30,3203
30,3323
30,3474
30,369
30,3757
30,4399
30,4449
30,4515
30,4978
30,5049
30,5475
30,6072
30,6119
30,6356
30,6551
30,6628
30,6945
30,7541
30,7624
30,7627
30,8289
30,8455
30,8507
30,8614
30,8702
30,8867
30,8882
30,8979
30,9199
30,9345
30,9524
30,9711
30,9778
30,9944
31,0036
31,0077
31,0443
31,0476
31,0568
31,0774
31,0809
31,0854
31,1122
31,1136
31,1174
31,149
31,154
31,1893
31,2023
31,2248
31,2565
31,2722
31,2756
31,3273
31,3305
31,3594
31,4039
31,4071
31,4522
31,4708
31,4775
31,4902
31,5357
31,5436
31,5645
31,5772
31,6574
31,662
31,6623
31,6645
31,7021
31,7515
31,7642
31,7665
31,7674
31,8271
31,8356
31,8388
31,8929
31,9223
31,952
31,9646
31,9767
31,9843
32,0153
32,0217
32,0279
32,0381
32,0385
32,0535
32,0633
32,0983
32,1127
32,126
32,1265
32,2256
32,2418
32,2673
32,3101
32,3112
32,3121
32,3297
32,4424
32,4661
32,4765
32,4855
32,527
32,5285
32,5638
32,5641
32,5726
32,586
32,6044
32,6381
32,643
32,6451
32,7239
32,7267
32,7439
32,8028
32,8207
32,8236
32,8313
32,845
32,86
32,8817
32,9169
32,9399
32,9563
32,9606
32,965
32,985
33,0395
33,0641
33,097
33,1142
33,1184
33,1235
33,1339
33,161
33,178
33,1874
33,1973
33,2045
33,2203
33,2695
33,2761
33,2919
33,339
33,363
33,3649
33,367
33,3678
33,4079
33,4151
33,4414
33,564
33,5828
33,5898
33,6092
33,6122
33,6136
33,6188
33,6302
33,638
33,6743
33,6818
33,752
33,7951
33,7967
33,8049
33,8186
33,896
33,8978
33,9027
33,9234
33,935
33,9401
33,9994
34,0193
34,0463
34,1321
34,1634
34,1697
34,2093
34,2293
34,2618
34,2926
34,3261
34,3361
34,3425
34,3542
34,3606
34,3897
34,4064
34,4291
34,4427
34,4525
34,4805
34,5152
34,5225
34,5529
34,5759
34,6032
34,6075
34,6358
34,6965
34,7633
34,8106
34,8358
34,866
34,88
34,9146
34,9377
34,9539
34,9737
34,9827
35,0054
35,0274
35,0342
35,0345
35,0632
35,0669
35,0787
35,1378
35,151
35,1841
35,1992
35,2297
35,232
35,2671
35,2721
35,3487
35,3946
35,406
35,5129
35,5158
35,5211
35,5226
35,5473
35,5538
35,5659
35,5841
35,605
35,6082
35,6442
35,6476
35,6651
35,6704
35,6973
35,7105
35,7235
35,7331
35,7629
35,7793
35,7829
35,8127
35,8154
35,8415
35,8452
35,9085
35,9145
35,9149
35,9362
35,9459
35,9921
36,0171
36,0182
36,0275
36,0333
36,0496
36,062
36,0626
36,0652
36,0731
36,1152
36,1157
36,1193
36,1406
36,1417
36,1652
36,1735
36,1799
36,1847
36,1952
36,2038
36,2152
36,217
36,2215
36,2652
36,2837
36,2882
36,2961
36,3028
36,3152
36,3199
36,3237
36,3313
36,3574
36,3652
36,378
36,4038
36,4152
36,4259
36,455
36,4651
36,4819
36,4859
36,5019
36,5183
36,527
36,5323
36,5361
36,5448
36,5473
36,5576
36,5618
36,5784
36,5802
36,5902
36,5923
36,6026
36,6298
36,638
36,6403
36,6417
36,6793
36,7063
36,7201
36,7216
36,7253
36,734
36,7423
36,7495
36,7576
36,7724
36,7849
36,7899
36,8015
36,8193
36,8293
36,8303
36,8316
36,8385
36,8619
36,8636
36,8773
36,8814
36,9046
36,9405
36,9613
36,9631
36,9654
36,9706
36,9923
36,997
37,0258
37,028
37,034
37,0367
37,0412
37,0673
37,0848
37,0974
37,0994
37,1028
37,1055
37,1116
37,1167
37,1211
37,1426
37,1587
37,1689
37,1812
37,2064
37,2363
37,2449
37,2502
37,3082
37,324
37,3273
37,3444
37,3516
37,356
37,3598
37,3794
37,3873
37,4381
37,4475
37,4589
37,4697
37,4757
37,4871
37,4946
37,5332
37,5357
37,5658
37,5663
37,5777
37,5838
37,5954
37,6183
37,6253
37,6309
37,6392
37,6533
37,6716
37,6826
37,6965
37,698
37,7151
37,7565
37,7698
37,7771
37,7848
37,7927
37,7932
37,8121
37,8155
37,8176
37,8347
37,9001
37,9128
37,9207
37,9263
37,9272
37,9545
37,978
38,02
38,0374
38,0384
38,0404
38,046
38,0743
38,075
38,0863
38,1046
38,1057
38,1363
38,1439
38,1502
38,1532
38,1546
38,1789
38,1818
38,1941
38,2011
38,208
38,2196
38,2225
38,2341
38,2624
38,2687
38,2801
38,2946
38,303
38,314
38,3652
38,3706
38,3722
38,383
38,3863
38,3874
38,4071
38,4085
38,4121
38,4151
38,4167
38,4338
38,4396
38,4696
38,4723
38,475
38,482
38,487
38,4946
38,4972
38,514
38,5201
38,539
38,5437
38,5498
38,5529
38,5536
38,5555
38,5582
38,5814
38,5964
38,6019
38,6188
38,6345
38,6363
38,6456
38,6517
38,6554
38,6695
38,6726
38,6734
38,681
38,6848
38,7091
38,7107
38,7186
38,7196
38,7231
38,7315
38,7344
38,7403
38,7413
38,7488
38,7869
38,789
38,8029
38,8068
38,8164
38,8195
38,8246
38,828
38,8332
38,8586
38,8618
38,8675
38,875
38,8882
38,9236
38,9313
38,9377
38,9456
38,9465
38,9676
38,9834
38,9902
39,0064
39,0262
39,0309
39,0407
39,0489
39,081
39,1049
39,1074
39,1247
39,1338
39,1381
39,1509
39,1534
39,1859
39,1921
39,1968
39,2007
39,2065
39,2089
39,2108
39,2139
39,2263
39,2276
39,2325
39,2358
39,2474
39,2556
39,2584
39,265
39,2856
39,31
39,3166
39,3432
39,3443
39,348
39,3604
39,3612
39,3826
39,4005
39,4528
39,4696
39,4798
39,4939
39,5161
39,5259
39,5424
39,5435
39,5542
39,5737
39,5792
39,5911
39,5977
39,607
39,6404
39,6429
39,6458
39,6699
39,6778
39,694
39,6947
39,6967
39,7118
39,7136
39,7367
39,7399
39,7617
39,7981
39,8061
39,813
39,8136
39,8161
39,8315
39,8343
39,8617
39,8661
39,8692
39,8777
39,8892
39,9058
39,9067
39,9278
39,9662
39,9693
39,9744
40,0201
40,0283
40,029
40,0308
40,0441
40,0456
40,0483
40,0594
40,0639
40,0652
40,0708
40,0786
40,0984
40,0988
40,0993
40,0999
40,1194
40,1237
40,1285
40,1325
40,1366
40,139
40,1455
40,1473
40,1674
40,1892
40,1989
40,211
40,223
40,2266
40,2295
40,232
40,2329
40,2351
40,2379
40,2489
40,2547
40,2646
40,2766
40,2798
40,2875
40,2956
40,2984
40,3073
40,3241
40,3379
40,3633
40,3905
40,4074
40,4111
40,4134
40,4332
40,4349
40,4466
40,4562
40,4695
40,4702
40,4847
40,4948
40,4956
40,4959
40,5214
40,5275
40,5316
40,5458
40,5602
40,5646
40,57
40,5973
40,6082
40,6165
40,62
40,6234
40,6397
40,6668
40,6673
40,679
40,6901
40,6907
40,6953
40,6975
40,7115
40,7343
40,7567
40,7746
40,7812
40,7835
40,7925
40,8358
40,8388
40,8407
40,8432
40,8463
40,8641
40,8776
40,9003
40,9021
40,9042
40,9108
40,9274
40,9779
40,981
40,9833
40,992
41,0109
41,0125
41,0175
41,0201
41,0318
41,0369
41,0528
41,0605
41,0699
41,0774
41,1027
41,1033
41,1063
41,1123
41,1261
41,129
41,1314
41,1354
41,1432
41,1768
41,1829
41,1935
41,2301
41,2342
41,2455
41,2529
41,2584
41,2712
41,272
41,2806
41,3109
41,3139
41,3175
41,3203
41,3237
41,3248
41,3272
41,3391
41,352
41,3549
41,3591
41,3661
41,3768
41,4164
41,4173
41,4195
41,4237
41,457
41,4905
41,5007
41,5142
41,527
41,538
41,5395
41,5549
41,5616
41,565
41,5663
41,5726
41,5749
41,5758
41,5819
41,6089
41,6214
41,6246
41,6395
41,644
41,6523
41,6529
41,6667
41,6799
41,681
41,6865
41,699
41,7004
41,7036
41,7051
41,7068
41,7099
41,714
41,7239
41,74
41,7432
41,7485
41,7508
41,7561
41,7568
41,758
41,7687
41,7795
41,7881
41,7885
41,7903
41,7908
41,7922
41,7933
41,7983
41,8011
41,8118
41,8185
41,8226
41,8321
41,8334
41,8441
41,8472
41,8487
41,8528
41,8555
41,863
41,8678
41,8711
41,8724
41,893
41,8983
41,9375
41,9418
41,9466
41,9686
41,9705
41,9733
41,9942
41,9963
41,9984
42,0003
42,003
42,012
42,0256
42,0299
42,0446
42,0523
42,0865
42,0868
42,088
42,0953
42,1202
42,1425
42,1616
42,1627
42,1723
42,1812
42,2304
42,2384
42,2557
42,26
42,268
42,2859
42,287
42,2872
42,2955
42,3022
42,3312
42,3349
42,3395
42,3403
42,3415
42,3476
42,3583
42,3593
42,3745
42,3766
42,378
42,3916
42,4086
42,4182
42,4462
42,4512
42,4567
42,4682
42,4874
42,4885
42,5235
42,555
42,5681
42,5793
42,5802
42,5853
42,5907
42,6009
42,6468
42,6534
42,6782
42,6859
42,6863
42,6912
42,7087
42,7091
42,7437
42,7476
42,7517
42,7555
42,7684
42,7793
42,7828
42,784
42,7938
42,8157
42,8163
42,818
42,8226
42,8278
42,8303
42,8329
42,844
42,85
42,8532
42,8635
42,8858
42,8859
42,8885
42,8938
42,9102
42,9189
42,9237
42,9389
42,9484
42,9506
42,9589
42,9875
42,9941
43,0072
43,0087
43,0102
43,0132
43,0164
43,0257
43,0293
43,0467
43,0486
43,0648
43,0671
43,073
43,0753
43,0965
43,1157
43,1329
43,1405
43,1427
43,1498
43,1802
43,1812
43,191
43,2053
43,2793
43,2905
43,2991
43,3102
43,315
43,3203
43,3304
43,3428
43,3444
43,3734
43,3806
43,3971
43,405
43,4631
43,4664
43,4764
43,4784
43,4834
43,489
43,4903
43,4974
43,5018
43,5022
43,5142
43,5157
43,5261
43,538
43,5447
43,5499
43,5619
43,5654
43,5761
43,6225
43,6357
43,6414
43,6499
43,6581
43,6598
43,6796
43,6891
43,6912
43,6951
43,7044
43,7146
43,7353
43,7615
43,7691
43,7716
43,7852
43,7895
43,7953
43,7975
43,7979
43,8018
43,8104
43,8196
43,8445
43,8523
43,8569
43,8619
43,8815
43,8838
43,8954
43,9006
43,9071
43,9084
43,9091
43,9159
43,9318
43,9769
43,9797
44,0074
44,0116
44,0396
44,0441
44,0512
44,0554
44,061
44,0668
44,1104
44,1347
44,1447
44,1538
44,1618
44,1787
44,2086
44,2264
44,2474
44,2736
44,2795
44,2856
44,2865
44,2933
44,2939
44,3075
44,3177
44,318
44,3385
44,343
44,3586
44,3621
44,3661
44,3681
44,3749
44,4048
44,4086
44,4197
44,4227
44,4256
44,4324
44,434
44,4465
44,4538
44,4719
44,474
44,4933
44,4993
44,5125
44,5234
44,5318
44,5511
44,5516
44,5544
44,5666
44,5703
44,5896
44,5954
44,5966
44,5999
44,6086
44,6088
44,611
44,6132
44,6281
44,6362
44,6368
44,6381
44,6466
44,6472
44,6514
44,6519
44,674
44,6915
44,6922
44,7069
44,7201
44,7444
44,7485
44,7656
44,771
44,7713
44,7733
44,7832
44,7876
44,7948
44,8086
44,8091
44,8224
44,8237
44,831
44,8509
44,8535
44,8727
44,8837
44,8876
44,8897
44,8948
44,9232
44,928
44,931
44,9426
44,948
44,9543
44,9569
44,9733
44,9798
44,9891
45,0003
45,0026
45,0079
45,0088
45,0119
45,0187
45,0229
45,0232
45,0357
45,0409
45,047
45,0503
45,0599
45,065
45,0759
45,0882
45,0922
45,1022
45,114
45,1192
45,1291
45,1425
45,1464
45,1525
45,1721
45,1803
45,1928
45,2035
45,209
45,2258
45,2267
45,2406
45,2489
45,251
45,2547
45,2609
45,2615
45,263
45,2663
45,2682
45,2724
45,2791
45,2853
45,2956
45,3287
45,3525
45,3543
45,3569
45,36
45,3622
45,3645
45,367
45,3737
45,3779
45,3868
45,3901
45,4068
45,4092
45,42
45,436
45,4364
45,4422
45,4514
45,4566
45,4592
45,4613
45,4792
45,4836
45,4932
45,514
45,5269
45,5486
45,5488
45,5501
45,5507
45,5518
45,5547
45,5598
45,5614
45,5677
45,5833
45,5847
45,5981
45,603
45,6094
45,6264
45,628
45,6286
45,6292
45,6373
45,6409
45,6506
45,6636
45,668
45,6827
45,6853
45,6945
45,695
45,7066
45,7073
45,7157
45,7197
45,726
45,733
45,7356
45,7486
45,7496
45,7511
45,7531
45,7597
45,762
45,7659
45,7698
45,7993
45,8029
45,8039
45,8071
45,8096
45,8133
45,8208
45,8251
45,8384
45,8434
45,8502
45,8527
45,8633
45,8711
45,8727
45,8914
45,8929
45,901
45,9025
45,9165
45,9193
45,92
45,9214
45,9354
45,9403
45,9406
45,9523
45,9535
45,9586
45,9702
45,9706
45,9753
45,9822
45,9832
45,9951
46,0021
46,0098
46,0164
46,0261
46,0314
46,0326
46,0362
46,0519
46,0675
46,0798
46,0875
46,0974
46,0996
46,1004
46,1018
46,1171
46,1235
46,126
46,1319
46,1396
46,1435
46,1516
46,1526
46,158
46,1588
46,1594
46,1636
46,1702
46,1717
46,1881
46,1964
46,1988
46,21
46,2109
46,2363
46,2496
46,2543
46,268
46,2699
46,2783
46,2926
46,2988
46,3063
46,3152
46,3474
46,365
46,3859
46,3906
46,3955
46,4043
46,4049
46,409
46,4107
46,4163
46,4342
46,436
46,4366
46,4415
46,4465
46,4491
46,4542
46,4576
46,4591
46,4648
46,4807
46,4952
46,4968
46,505
46,507
46,5133
46,5179
46,5299
46,5496
46,5503
46,573
46,576
46,6491
46,652
46,6555
46,6567
46,6603
46,6605
46,6622
46,6689
46,6702
46,6722
46,6756
46,6785
46,6823
46,6879
46,689
46,6949
46,6956
46,6986
46,7023
46,709
46,7114
46,7121
46,7157
46,728
46,7318
46,7692
46,8013
46,8028
46,8071
46,8361
46,8374
46,8393
46,8669
46,8761
46,8879
46,8976
46,9055
46,9095
46,9177
46,9313
46,9562
46,9586
46,9762
46,9783
46,9859
46,9953
46,9973
46,9999
47,0047
47,0068
47,0073
47,0095
47,0172
47,0253
47,0298
47,0301
47,0326
47,0474
47,0485
47,0654
47,0766
47,0839
47,0862
47,0931
47,1058
47,1076
47,1304
47,1442
47,1475
47,1492
47,1502
47,1506
47,165
47,1778
47,1923
47,2192
47,233
47,2353
47,2362
47,2427
47,2449
47,2623
47,2788
47,2857
47,2982
47,3025
47,3057
47,3144
47,3158
47,3303
47,3344
47,3406
47,3611
47,3655
47,3729
47,3772
47,38
47,3957
47,3986
47,4344
47,4479
47,4533
47,4621
47,4648
47,472
47,4814
47,4815
47,4828
47,4921
47,5038
47,5127
47,5192
47,5278
47,5342
47,5364
47,5407
47,5409
47,5604
47,5642
47,5647
47,575
47,5795
47,5878
47,5904
47,605
47,6122
47,6201
47,623
47,6233
47,6353
47,6408
47,6461
47,647
47,6702
47,6702
47,6787
47,6992
47,7019
47,7038
47,7144
47,719
47,7244
47,7256
47,7279
47,7298
47,7639
47,7646
47,7751
47,7808
47,7879
47,8081
47,8125
47,8284
47,8419
47,8434
47,8473
47,8511
47,8547
47,8625
47,8731
47,8859
47,8928
47,8942
47,8955
47,91
47,917
47,9286
47,9333
47,9404
47,942
47,9436
47,9753
47,9754
47,9782
48,0005
48,0236
48,0259
48,0282
48,0495
48,0644
48,0775
48,0815
48,0929
48,1222
48,1234
48,1237
48,1279
48,1289
48,1309
48,135
48,1584
48,1665
48,1701
48,1719
48,1724
48,1767
48,1841
48,1988
48,2052
48,2054
48,2163
48,2272
48,2364
48,2437
48,2454
48,2467
48,2561
48,2616
48,2639
48,2692
48,2777
48,2922
48,3526
48,3642
48,3718
48,376
48,3789
48,381
48,3822
48,3975
48,4034
48,405
48,4097
48,412
48,4173
48,4217
48,4274
48,4437
48,4471
48,4473
48,4481
48,4611
48,4713
48,4925
48,4975
48,5058
48,5283
48,5363
48,5552
48,5592
48,5633
48,5772
48,5789
48,5859
48,6186
48,6211
48,6223
48,6227
48,6442
48,6455
48,6461
48,664
48,6716
48,6737
48,6783
48,6834
48,686
48,6905
48,7136
48,7168
48,7269
48,729
48,7362
48,7585
48,761
48,7631
48,766
48,7699
48,7814
48,7821
48,788
48,8058
48,8095
48,8274
48,8361
48,8666
48,8736
48,8767
48,8985
48,9017
48,9044
48,9078
48,9112
48,9133
48,933
48,9638
48,9842
48,9853
48,9863
48,9889
49,0144
49,0162
49,0179
49,0192
49,0207
49,021
49,031
49,0399
49,0455
49,0606
49,0614
49,0619
49,0903
49,0944
49,1085
49,1105
49,1117
49,117
49,1221
49,1366
49,1371
49,1396
49,1565
49,1597
49,1624
49,1631
49,1752
49,1964
49,2117
49,2246
49,2277
49,2297
49,2322
49,2536
49,2566
49,2636
49,2665
49,2673
49,2868
49,3025
49,3366
49,3377
49,3485
49,3544
49,3552
49,3619
49,3673
49,3699
49,3725
49,3836
49,3943
49,4027
49,4057
49,4062
49,4067
49,4222
49,433
49,4443
49,4768
49,4862
49,5213
49,5257
49,5428
49,5469
49,5474
49,5516
49,5552
49,5634
49,5872
49,5917
49,5936
49,5984
49,6014
49,617
49,6192
49,6306
49,6325
49,6357
49,6499
49,6639
49,664
49,6645
49,6646
49,6871
49,7008
49,7039
49,7162
49,7169
49,7323
49,7412
49,7523
49,7572
49,7666
49,7693
49,7716
49,7771
49,8273
49,8367
49,8423
49,8575
49,8586
49,8702
49,8719
49,8861
49,9095
49,9173
49,9232
49,9234
49,9297
49,9298
49,9403
49,9445
49,9648
49,9883
49,99
49,9959
50,0065
50,0106
50,0109
50,033
50,0451
50,0585
50,0824
50,0862
50,0895
50,1075
50,1087
50,1135
50,1359
50,1474
50,1564
50,193
50,2246
50,225
50,235
50,239
50,2391
50,242
50,2447
50,2474
50,2799
50,2884
50,2981
50,3036
50,3101
50,3215
50,3265
50,3276
50,329
50,3301
50,3421
50,3456
50,3552
50,3627
50,3793
50,4034
50,404
50,4125
50,4214
50,4435
50,4452
50,457
50,4724
50,475
50,48
50,4857
50,4925
50,4999
50,505
50,5159
50,5269
50,5338
50,5483
50,5505
50,5591
50,5622
50,5659
50,5754
50,5775
50,579
50,5811
50,5891
50,5956
50,6069
50,6439
50,6503
50,6514
50,6696
50,6734
50,6839
50,725
50,7426
50,7545
50,7581
50,7604
50,7719
50,7738
50,7831
50,7853
50,7855
50,789
50,8174
50,8176
50,8233
50,8279
50,8453
50,8466
50,8484
50,8544
50,8576
50,8758
50,876
50,8973
50,9089
50,9094
50,9166
50,9316
50,9352
50,9417
50,9562
50,9598
50,97
50,9705
50,9744
50,9746
50,9816
50,992
50,9934
51,0075
51,0097
51,0103
51,0193
51,0198
51,0221
51,0237
51,0241
51,0401
51,0404
51,051
51,0578
51,0607
51,0643
51,0657
51,0732
51,0748
51,0754
51,0768
51,0931
51,0948
51,0996
51,1061
51,1107
51,1112
51,1122
51,1284
51,1327
51,139
51,1414
51,146
51,1596
51,1616
51,1637
51,1661
51,1708
51,1813
51,1921
51,198
51,2019
51,2058
51,206
51,2121
51,2149
51,2182
51,2625
51,2767
51,2875
51,2934
51,2948
51,3105
51,3129
51,3198
51,324
51,3257
51,3359
51,341
51,346
51,3478
51,3626
51,3648
51,3693
51,3775
51,3923
51,4072
51,4082
51,4102
51,4152
51,422
51,4256
51,4363
51,4369
51,4447
51,4472
51,4517
51,46
51,4666
51,4886
51,5376
51,5444
51,5625
51,5653
51,5674
51,5746
51,5849
51,5911
51,6023
51,6032
51,6048
51,6102
51,6143
51,6264
51,6389
51,6601
51,6698
51,6804
51,705
51,7103
51,712
51,7134
51,7206
51,7571
51,7885
51,7944
51,8046
51,8136
51,8235
51,825
51,8269
51,8379
51,8587
51,8759
51,883
51,898
51,8995
51,9053
51,9085
51,9117
51,9123
51,9127
51,9149
51,9181
51,9184
51,9213
51,9244
51,9276
51,9308
51,9379
51,9455
51,95
51,9639
51,9882
52,0028
52,0054
52,0072
52,0185
52,0197
52,0216
52,0334
52,0485
52,0558
52,0724
52,0791
52,1193
52,1251
52,1326
52,1365
52,1447
52,1522
52,1536
52,1669
52,1818
52,1904
52,1957
52,2031
52,2075
52,2175
52,2285
52,232
52,2327
52,2484
52,262
52,2669
52,2741
52,2799
52,2985
52,2989
52,3011
52,3165
52,3213
52,3273
52,3368
52,3458
52,3501
52,3545
52,3591
52,3649
52,3866
52,3872
52,4013
52,4035
52,415
52,4456
52,4502
52,4579
52,4655
52,474
52,474
52,5056
52,5139
52,5331
52,5501
52,5507
52,5701
52,5763
52,5836
52,5867
52,5898
52,5923
52,5953
52,5957
52,5965
52,6137
52,6154
52,6239
52,634
52,6853
52,6976
52,6984
52,7097
52,7122
52,7153
52,7391
52,7423
52,7489
52,7492
52,7658
52,7672
52,796
52,8165
52,8204
52,8268
52,8302
52,8318
52,8607
52,8662
52,881
52,8872
52,8876
52,8945
52,8976
52,9294
52,9387
52,9411
52,9556
52,9567
52,9624
52,964
52,9704
52,9791
53,0023
53,019
53,0258
53,0329
53,0377
53,0399
53,0596
53,0679
53,0818
53,0826
53,0907
53,0975
53,1082
53,11
53,1243
53,1316
53,1395
53,1484
53,1487
53,1612
53,1697
53,183
53,1906
53,198
53,2094
53,2159
53,2233
53,2258
53,2332
53,2335
53,2493
53,2631
53,2729
53,2771
53,3125
53,3166
53,3269
53,331
53,3343
53,3389
53,3553
53,363
53,3771
53,3838
53,3889
53,391
53,4069
53,4095
53,4222
53,4313
53,4378
53,4394
53,4429
53,4555
53,4578
53,4599
53,4747
53,4895
53,5141
53,5201
53,5327
53,5393
53,555
53,5968
53,6003
53,6012
53,6025
53,622
53,6291
53,655
53,661
53,6807
53,6831
53,6849
53,7139
53,7164
53,7223
53,7228
53,7325
53,7338
53,746
53,746
53,7542
53,7706
53,7753
53,7864
53,7979
53,8255
53,8446
53,8605
53,8731
53,884
53,8866
53,9027
53,913
53,9221
53,9283
53,9305
53,9435
53,9514
53,9531
53,9609
53,9818
53,9869
53,99
53,9964
53,9993
54,0095
54,0107
54,0341
54,0557
54,0847
54,1015
54,1106
54,1163
54,1183
54,1267
54,1323
54,1345
54,1634
54,1637
54,1675
54,1688
54,1736
54,1964
54,2
54,2038
54,2106
54,2287
54,2295
54,2573
54,2642
54,2679
54,279
54,3038
54,3223
54,358
54,3583
54,382
54,3908
54,4229
54,436
54,4463
54,4488
54,4653
54,475
54,4782
54,4821
54,4835
54,4874
54,4932
54,4992
54,5031
54,5113
54,5166
54,5246
54,5482
54,5547
54,5551
54,5582
54,5607
54,561
54,5615
54,5748
54,5979
54,5998
54,6104
54,6127
54,6242
54,6319
54,6414
54,6536
54,6684
54,669
54,6726
54,6754
54,6811
54,683
54,6941
54,7065
54,7247
54,745
54,7471
54,755
54,7663
54,7827
54,7918
54,7961
54,7988
54,8079
54,8242
54,8411
54,8643
54,8727
54,8752
54,8817
54,8857
54,8986
54,9093
54,9316
54,9459
54,9464
54,9535
54,9994
55,006
55,0114
55,0181
55,0351
55,0523
55,0579
55,0591
55,0628
55,0828
55,0894
55,1057
55,1162
55,1222
55,1414
55,1427
55,1434
55,1496
55,1514
55,1677
55,1701
55,1728
55,1867
55,1908
55,1971
55,2033
55,2233
55,2411
55,2427
55,2567
55,2648
55,2884
55,3195
55,3264
55,3341
55,3377
55,3642
55,3754
55,3797
55,3879
55,3899
55,3922
55,3977
55,4017
55,4249
55,4254
55,4273
55,4384
55,4465
55,4495
55,4595
55,471
55,4718
55,4749
55,4903
55,4958
55,5032
55,511
55,516
55,5225
55,5237
55,5336
55,5609
55,5657
55,5726
55,5759
55,5768
55,5936
55,6179
55,6224
55,6302
55,6341
55,6566
55,6813
55,6837
55,6853
55,6957
55,729
55,7546
55,7606
55,8131
55,8382
55,8416
55,8609
55,8619
55,8706
55,8824
55,8964
55,8977
55,8984
55,9007
55,9431
55,9468
55,9484
55,9587
55,9688
55,9768
55,9945
55,9948
55,9958
55,9965
56,0079
56,0144
56,0219
56,0316
56,0422
56,0442
56,0521
56,061
56,0897
56,09
56,1092
56,1109
56,1187
56,1204
56,1212
56,1254
56,1273
56,1377
56,1605
56,1649
56,1671
56,1737
56,1802
56,1809
56,182
56,1855
56,2025
56,2079
56,2207
56,2332
56,236
56,2402
56,2448
56,2451
56,2524
56,2689
56,2778
56,2809
56,2993
56,3027
56,3052
56,3122
56,321
56,3287
56,3353
56,3512
56,3535
56,3629
56,3716
56,3981
56,4095
56,4185
56,4383
56,4535
56,484
56,5117
56,5359
56,5377
56,5538
56,5698
56,5736
56,5739
56,5913
56,5915
56,5943
56,6162
56,648
56,6527
56,6548
56,6557
56,6569
56,6605
56,6851
56,7078
56,7089
56,7095
56,7126
56,7265
56,7417
56,7485
56,7655
56,7678
56,7741
56,776
56,784
56,7909
56,8066
56,8119
56,8166
56,8195
56,8234
56,8274
56,8451
56,8556
56,8558
56,8883
56,8935
56,8937
56,8952
56,8972
56,903
56,9133
56,9137
56,916
56,9207
56,9288
56,9367
56,9532
56,9544
56,9632
56,9737
56,9807
56,9857
56,9991
57,0144
57,0181
57,0201
57,0247
57,0413
57,0478
57,0506
57,0658
57,0687
57,0821
57,0868
57,0932
57,103
57,106
57,1077
57,1149
57,1162
57,1191
57,1201
57,1212
57,1243
57,1282
57,1287
57,1345
57,1428
57,1444
57,1496
57,1548
57,1664
57,1706
57,1916
57,2011
57,2023
57,2125
57,2211
57,2284
57,2335
57,2367
57,2448
57,2504
57,264
57,2943
57,2965
57,3013
57,3078
57,3138
57,3168
57,329
57,3325
57,3432
57,3616
57,3632
57,3646
57,368
57,3866
57,3907
57,3944
57,4284
57,4366
57,4473
57,4592
57,4811
57,4944
57,4994
57,5053
57,5152
57,5249
57,5302
57,5316
57,534
57,5408
57,5428
57,5568
57,5677
57,5803
57,6269
57,6289
57,6441
57,6486
57,6544
57,6545
57,6612
57,6702
57,6761
57,6909
57,6916
57,6938
57,6945
57,7015
57,7058
57,7201
57,7207
57,7355
57,741
57,7441
57,7455
57,7468
57,748
57,7504
57,7521
57,7652
57,7694
57,7717
57,7801
57,7887
57,7902
57,8303
57,8346
57,8497
57,8571
57,8609
57,8823
57,8842
57,8869
57,8877
57,8947
57,9085
57,9295
57,9486
57,9569
57,9582
57,9628
57,9713
58,0007
58,0292
58,0415
58,0708
58,0739
58,0954
58,0969
58,1104
58,1132
58,13
58,1347
58,1364
58,1435
58,1604
58,2049
58,2075
58,2297
58,2421
58,2446
58,2594
58,2601
58,2623
58,2854
58,2859
58,3112
58,3602
58,3889
58,4168
58,4206
58,4261
58,4392
58,4463
58,4479
58,4515
58,4586
58,4662
58,4677
58,4696
58,4713
58,4738
58,4765
58,4775
58,5027
58,5126
58,526
58,5317
58,5356
58,5647
58,576
58,5825
58,5894
58,5939
58,6325
58,6364
58,6437
58,6622
58,6824
58,6876
58,6919
58,7217
58,7437
58,7855
58,7925
58,7947
58,806
58,8091
58,8127
58,8159
58,8167
58,8194
58,8291
58,8561
58,8767
58,8795
58,8902
58,8945
58,9156
58,9165
58,9329
58,9576
58,9576
58,9639
58,9744
58,9759
58,9764
58,9828
58,9918
59,0344
59,0481
59,0587
59,0889
59,0934
59,1226
59,1335
59,1429
59,1438
59,1455
59,154
59,1869
59,1937
59,2233
59,2271
59,2282
59,2608
59,2694
59,2727
59,284
59,3052
59,3112
59,3114
59,3292
59,3326
59,3448
59,3493
59,3526
59,3711
59,3956
59,4148
59,4189
59,4198
59,4251
59,463
59,4746
59,4785
59,4824
59,4891
59,4953
59,545
59,5538
59,5542
59,5545
59,593
59,6049
59,6067
59,6208
59,6344
59,6447
59,6459
59,6571
59,6578
59,6794
59,6948
59,7035
59,7076
59,7186
59,7355
59,7518
59,7603
59,782
59,7826
59,7832
59,8114
59,8133
59,8156
59,8266
59,8367
59,8625
59,8628
59,864
59,8662
59,8863
59,8949
59,9077
59,9172
59,9214
59,9615
59,9695
59,9807
59,9886
60,008
60,0346
60,0729
60,0821
60,0827
60,0844
60,0989
60,1072
60,1134
60,1214
60,148
60,1514
60,154
60,1566
60,1762
60,1763
60,1897
60,1989
60,2289
60,238
60,2508
60,266
60,2733
60,2736
60,2797
60,2811
60,2893
60,3064
60,3136
60,3475
60,3614
60,3788
60,3831
60,3867
60,3927
60,4008
60,4292
60,445
60,4541
60,4577
60,4649
60,4739
60,4745
60,4864
60,4968
60,4999
60,512
60,5312
60,5541
60,5586
60,5898
60,6127
60,6284
60,6314
60,6362
60,6388
60,6541
60,6695
60,6843
60,6874
60,6932
60,6955
60,7177
60,7369
60,7507
60,7562
60,7694
60,7783
60,7796
60,7979
60,8012
60,8088
60,8197
60,8327
60,8437
60,8611
60,8635
60,87
60,8935
60,9024
60,9035
60,9438
60,9804
60,9894
61,004
61,015
61,0205
61,0268
61,0469
61,0827
61,1157
61,1287
61,1311
61,1509
61,1538
61,1804
61,1807
61,1808
61,1973
61,2078
61,2317
61,2575
61,2782
61,2851
61,3039
61,3205
61,3491
61,3713
61,3984
61,4
61,4061
61,4083
61,4137
61,4148
61,4196
61,4672
61,5036
61,554
61,5677
61,5782
61,589
61,5922
61,5927
61,6059
61,6168
61,6317
61,6452
61,6647
61,6667
61,672
61,677
61,6988
61,7518
61,7654
61,7767
61,7939
61,8028
61,8263
61,8351
61,8428
61,8594
61,8781
61,89
61,894
61,9404
61,9608
61,9664
61,974
61,9838
62,0088
62,0124
62,0413
62,0698
62,0833
62,0904
62,0944
62,1039
62,1132
62,1347
62,1566
62,1684
62,1907
62,2441
62,2464
62,2506
62,2612
62,2661
62,2752
62,2824
62,2843
62,3223
62,3244
62,3504
62,3543
62,3561
62,3794
62,3844
62,3964
62,3997
62,4025
62,4068
62,4746
62,4805
62,4981
62,5317
62,5493
62,5506
62,5585
62,563
62,5658
62,5787
62,6191
62,6241
62,6358
62,6363
62,6365
62,6539
62,663
62,6747
62,7179
62,7191
62,7195
62,7408
62,7564
62,7677
62,7737
62,7906
62,836
62,8504
62,8654
62,8688
62,8753
62,8888
62,8981
62,9001
62,9184
62,9458
62,9666
62,9999
63,0315
63,034
63,065
63,0736
63,0908
63,112
63,1135
63,1159
63,1194
63,1231
63,1331
63,1542
63,1651
63,1753
63,1876
63,1889
63,1964
63,1973
63,2038
63,2176
63,2206
63,2294
63,2387
63,2598
63,2685
63,2847
63,3236
63,3438
63,3582
63,3586
63,3801
63,3924
63,4008
63,4034
63,4145
63,4207
63,4281
63,4396
63,4417
63,4554
63,4648
63,469
63,4718
63,4775
63,4806
63,4826
63,4963
63,5053
63,5099
63,5163
63,5188
63,5208
63,5367
63,5587
63,5614
63,5718
63,5956
63,6029
63,6241
63,6684
63,6907
63,7299
63,7538
63,7645
63,7948
63,8044
63,8189
63,8397
63,8457
63,8492
63,856
63,8844
63,9013
63,9033
63,9058
63,9096
63,9201
63,9296
63,9418
63,9907
63,9988
64,0168
64,0289
64,0359
64,0482
64,0531
64,0642
64,0752
64,0827
64,1069
64,1217
64,1277
64,1314
64,1358
64,1885
64,1904
64,2073
64,2361
64,2387
64,2815
64,2942
64,3008
64,3037
64,3088
64,3322
64,3378
64,3497
64,355
64,3639
64,3772
64,407
64,4195
64,45
64,4607
64,4779
64,491
64,4965
64,5447
64,5599
64,5716
64,586
64,5936
64,5973
64,5985
64,6181
64,6186
64,621
64,6264
64,6349
64,6429
64,6495
64,6624
64,6644
64,677
64,6826
64,7215
64,7461
64,7527
64,8081
64,8228
64,8537
64,86
64,8947
64,8974
64,9092
64,9097
64,9111
64,9731
64,9813
64,9861
64,9914
64,997
64,9974
65,0603
65,0675
65,0679
65,0686
65,076
65,0808
65,1014
65,1045
65,1369
65,1487
65,1543
65,178
65,1907
65,1976
65,2025
65,2073
65,2141
65,241
65,2431
65,2436
65,2472
65,2874
65,2935
65,3165
65,3249
65,3267
65,3276
65,3297
65,3429
65,3538
65,3752
65,3845
65,3978
65,408
65,4123
65,4145
65,4398
65,4627
65,4826
65,4883
65,4916
65,4978
65,5075
65,521
65,5441
65,5526
65,5614
65,5625
65,5843
65,5986
65,5993
65,6069
65,6154
65,6221
65,6562
65,6619
65,6623
65,6706
65,6845
65,7063
65,7346
65,7541
65,7741
65,796
65,7961
65,7966
65,798
65,8057
65,8173
65,8257
65,8608
65,8653
65,8706
65,9052
65,9079
65,915
65,9157
65,9281
65,9424
65,9708
65,9763
65,9845
65,9949
65,9957
65,9972
66,001
66,0042
66,0046
66,0065
66,023
66,0671
66,0885
66,0981
66,104
66,1152
66,1191
66,1263
66,1417
66,1425
66,1532
66,1795
66,2034
66,204
66,2342
66,2384
66,2784
66,2809
66,2845
66,3004
66,3276
66,3283
66,3325
66,3398
66,3497
66,3509
66,3757
66,379
66,3822
66,3875
66,3983
66,4142
66,4177
66,4182
66,4397
66,455
66,4566
66,4642
66,4875
66,5597
66,5821
66,5845
66,5921
66,6273
66,6317
66,6372
66,6602
66,6678
66,6717
66,6857
66,6942
66,6985
66,7085
66,7293
66,7639
66,7749
66,7841
66,7872
66,788
66,7885
66,7919
66,7983
66,8845
66,8862
66,888
66,9179
66,9203
66,9243
66,9426
66,9446
66,9499
66,9558
66,9623
66,9815
66,9917
66,9928
66,9989
67,003
67,0324
67,0344
67,1097
67,1115
67,114
67,1253
67,1481
67,1521
67,1543
67,1578
67,1684
67,1845
67,188
67,1915
67,1954
67,1984
67,2013
67,2522
67,2558
67,2678
67,285
67,2909
67,2993
67,3082
67,3103
67,3254
67,3383
67,3843
67,3914
67,416
67,4186
67,423
67,439
67,4445
67,4631
67,4657
67,4798
67,4836
67,4845
67,4995
67,5172
67,5912
67,599
67,6121
67,6178
67,6435
67,6489
67,6505
67,6581
67,659
67,6731
67,6736
67,6793
67,6906
67,702
67,7096
67,7301
67,7318
67,7405
67,7547
67,7665
67,773
67,7745
67,7801
67,7845
67,791
67,8093
67,8099
67,8109
67,8187
67,8266
67,8782
67,9257
67,9286
67,9362
67,9367
67,94
67,9513
67,9847
67,9888
67,9896
67,9908
67,9928
67,9945
68,002
68,0068
68,0361
68,0417
68,0671
68,072
68,0773
68,0852
68,0878
68,094
68,0994
68,1139
68,1234
68,1303
68,1679
68,169
68,1828
68,1906
68,2008
68,21
68,2546
68,2586
68,2589
68,2597
68,2686
68,3043
68,3092
68,3206
68,3278
68,341
68,345
68,3492
68,354
68,3604
68,3666
68,3853
68,3905
68,3919
68,4214
68,4283
68,429
68,4311
68,4321
68,4398
68,4466
68,4471
68,4602
68,4615
68,4706
68,4747
68,479
68,4882
68,4965
68,5094
68,512
68,5233
68,5304
68,5417
68,5508
68,5699
68,5731
68,6035
68,621
68,6269
68,6382
68,6523
68,6671
68,6751
68,705
68,7087
68,7116
68,7189
68,7223
68,745
68,7489
68,7629
68,7643
68,7723
68,7877
68,8023
68,8286
68,8309
68,846
68,8582
68,8635
68,875
68,8801
68,8839
68,8915
68,9212
68,9259
68,9273
68,9295
68,9518
68,9762
68,983
69,0059
69,0165
69,025
69,0499
69,0521
69,0594
69,0764
69,0774
69,0911
69,1021
69,1026
69,1079
69,1527
69,1553
69,1654
69,1673
69,1792
69,1818
69,1821
69,1988
69,2039
69,2079
69,21
69,2274
69,232
69,2438
69,2458
69,2606
69,2688
69,2701
69,2998
69,3076
69,3082
69,3133
69,3165
69,335
69,3524
69,3528
69,3593
69,3646
69,3659
69,3698
69,3773
69,3819
69,3829
69,3875
69,3997
69,4021
69,4077
69,4186
69,427
69,4359
69,4518
69,4593
69,4666
69,4713
69,4767
69,4815
69,4821
69,4882
69,4969
69,4976
69,5015
69,5056
69,5066
69,5137
69,5211
69,5264
69,5284
69,5362
69,5384
69,5392
69,5512
69,5633
69,5734
69,5945
69,5952
69,5961
69,5965
69,6177
69,6264
69,6334
69,6476
69,6504
69,6679
69,6733
69,6869
69,6978
69,7273
69,7331
69,7366
69,7464
69,7733
69,7851
69,7943
69,7972
69,8011
69,8039
69,8053
69,8074
69,8124
69,8165
69,8252
69,8362
69,8405
69,8426
69,8469
69,8588
69,8599
69,8678
69,8706
69,8771
69,883
69,8932
69,8947
69,9003
69,9044
69,9415
69,9603
69,9627
69,9779
69,9841
69,9925
69,9998
70,0077
70,021
70,0237
70,0256
70,0445
70,0547
70,0656
70,0755
70,0761
70,0843
70,0905
70,1
70,1062
70,111
70,1152
70,1193
70,1236
70,1252
70,1448
70,1528
70,1653
70,1735
70,19
70,1983
70,2014
70,2096
70,2113
70,2143
70,2186
70,2261
70,2302
70,2351
70,2459
70,2536
70,2541
70,2579
70,2689
70,2701
70,2732
70,2752
70,2779
70,2821
70,2851
70,2891
70,2915
70,2949
70,2981
70,2994
70,3101
70,3118
70,3176
70,3381
70,3437
70,3557
70,3661
70,3873
70,3941
70,3986
70,4015
70,4086
70,4152
70,4187
70,4209
70,422
70,425
70,4261
70,4301
70,4374
70,4443
70,4491
70,45
70,4571
70,4633
70,4748
70,4777
70,4861
70,4867
70,4917
70,4978
70,5093
70,5118
70,5213
70,5257
70,5308
70,5426
70,5475
70,5534
70,5649
70,5799
70,5862
70,597
70,6041
70,6117
70,6255
70,6391
70,6452
70,6489
70,6511
70,6515
70,6516
70,6562
70,6597
70,6863
70,6873
70,6962
70,7102
70,7242
70,7255
70,7329
70,7348
70,7371
70,7457
70,7468
70,7533
70,7663
70,7831
70,7834
70,7954
70,7962
70,8045
70,8057
70,8162
70,8167
70,823
70,8334
70,8396
70,8464
70,851
70,8596
70,8678
70,875
70,8824
70,8879
70,8897
70,8946
70,9129
70,9148
70,9199
70,9256
70,9286
70,9372
70,9393
70,9489
70,9493
70,9881
70,99
70,9938
71,0069
71,0181
71,0188
71,0215
71,0278
71,0332
71,0343
71,0398
71,0431
71,0472
71,049
71,0576
71,0635
71,077
71,08
71,0801
71,0865
71,0906
71,093
71,0938
71,0941
71,1122
71,1232
71,1355
71,1471
71,153
71,1537
71,1635
71,1786
71,1837
71,1898
71,1914
71,1998
71,2017
71,209
71,2096
71,2159
71,2182
71,2274
71,2279
71,2344
71,2366
71,2389
71,2451
71,2458
71,2475
71,2545
71,255
71,26
71,2636
71,2642
71,2672
71,271
71,2733
71,2772
71,2777
71,2894
71,3004
71,3053
71,3126
71,3202
71,3422
71,3466
71,3565
71,3619
71,3631
71,3636
71,3656
71,3668
71,3769
71,3837
71,3978
71,4013
71,4041
71,4126
71,4129
71,425
71,4383
71,4423
71,4489
71,4499
71,4556
71,4636
71,4787
71,4881
71,4901
71,505
71,5082
71,5208
71,5241
71,5285
71,5314
71,5347
71,5607
71,5636
71,5713
71,5804
71,5828
71,5859
71,5922
71,5974
71,6009
71,6023
71,6206
71,6249
71,6512
71,6534
71,6626
71,6636
71,6662
71,6733
71,6736
71,6898
71,6963
71,7003
71,706
71,7064
71,7231
71,7258
71,7287
71,7356
71,7381
71,7387
71,7413
71,7429
71,7502
71,7601
71,7637
71,7741
71,7758
71,7804
71,7822
71,783
71,7861
71,7923
71,8058
71,8135
71,8181
71,8287
71,832
71,8452
71,8513
71,8515
71,8637
71,8744
71,8746
71,8781
71,889
71,8972
71,907
71,9185
71,9201
71,9235
71,9237
71,9242
71,9267
71,9275
71,9289
71,9326
71,9332
71,9341
71,9394
71,9426
71,944
71,9446
71,9455
71,9494
71,9498
71,951
71,9525
71,9537
71,9543
71,955
71,9557
71,9557
71,9566
71,9574
71,9577
71,9585
71,9595
71,9598
71,9602
71,9602
71,9608
71,9611
71,9616
71,9626
71,9631
71,9635
71,9636
71,9645
71,9648
71,965
71,9654
